#ZVView-data-copy:   9-Jul-2018 18:24:53
#=======================================
#
#name:   ENDF/B-VIII.0: HE-3(D,P`)HE-4-L0
#X.axis: Incident Energy
#Y.axis: Cross Section
#wdata:  2
#ldata:  309
#data...
#            X            Y
#          MeV        barns
        0.0008            0
        0.0009   2.7947e-37
         0.001   3.0681e-35
         0.002   3.0401e-24
         0.003   2.0517e-19
         0.004   1.4837e-16
         0.005    1.292e-14
         0.006   3.4345e-13
         0.007    4.344e-12
         0.008   3.3294e-11
    0.00848528  7.81549e-11
    0.00861113  9.63374e-11
    0.00865881  1.04154e-10
    0.00871915  1.14854e-10
    0.00876997  1.24616e-10
    0.00882692  1.36426e-10
    0.00888604  1.49729e-10
    0.00892657  1.59506e-10
    0.00897546  1.72048e-10
    0.00902968  1.86983e-10
    0.00908747  2.04158e-10
    0.00914198   2.2163e-10
    0.00919338  2.39308e-10
    0.00924183  2.57106e-10
    0.00928748  2.74941e-10
    0.00935137   3.0174e-10
    0.00940912  3.27929e-10
    0.00946242  3.53868e-10
      0.009528   3.8827e-10
    0.00958576  4.20985e-10
    0.00963659  4.51768e-10
     0.0097009  4.93562e-10
    0.00975506  5.31371e-10
    0.00981572  5.76745e-10
    0.00988114  6.29477e-10
    0.00994039  6.80864e-10
          0.01   7.3626e-10
     0.0100597  7.95756e-10
     0.0101161    8.557e-10
     0.0101942  9.45361e-10
     0.0102664    1.0355e-9
     0.0103316   1.12341e-9
     0.0103919   1.21033e-9
      0.010466   1.32539e-9
     0.0105313   1.43459e-9
      0.010614   1.58422e-9
     0.0106838   1.72083e-9
      0.010762   1.88623e-9
     0.0108432   2.07268e-9
     0.0108989   2.20978e-9
     0.0109662   2.38576e-9
       0.01103   2.56374e-9
     0.0111165   2.82407e-9
     0.0111948   3.07923e-9
     0.0112672   3.33262e-9
     0.0113535    3.6586e-9
     0.0114323   3.98053e-9
     0.0115018   4.28427e-9
     0.0115916    4.7066e-9
     0.0116419   4.95871e-9
     0.0117304   5.43123e-9
     0.0118224   5.96339e-9
     0.0118855   6.35438e-9
     0.0119617   6.85589e-9
     0.0120602    7.5548e-9
     0.0121435   8.19419e-9
     0.0122205   8.82601e-9
     0.0123154   9.66186e-9
     0.0123989   1.04546e-8
     0.0125048   1.15401e-8
     0.0125942   1.25304e-8
     0.0126944   1.37284e-8
     0.0127987   1.50777e-8
     0.0128702   1.60691e-8
     0.0129566   1.73408e-8
     0.0130604   1.89827e-8
     0.0131707   2.08748e-8
     0.0132716   2.27454e-8
     0.0133605   2.45121e-8
     0.0134756   2.69711e-8
       0.01354   2.84402e-8
     0.0136536   3.11959e-8
     0.0137717   3.43027e-8
     0.0138528   3.65871e-8
     0.0139508   3.95194e-8
     0.0140585   4.29776e-8
     0.0141727     4.692e-8
     0.0142805   5.09259e-8
     0.0143823   5.49746e-8
     0.0144785   5.90462e-8
     0.0146133   6.51886e-8
     0.0147354   7.12168e-8
     0.0148483   7.72098e-8
     0.0149833   8.49282e-8
     0.0151067   9.25586e-8
     0.0152156   9.97638e-8
     0.0153565   1.09791e-7
     0.0154355   1.15781e-7
     0.0155747   1.27014e-7
     0.0157196   1.39674e-7
     0.0158192   1.48981e-7
     0.0159395   1.60924e-7
      0.016059   1.73584e-7
     0.0161739   1.86551e-7
     0.0163352    2.0612e-7
     0.0164814   2.25332e-7
     0.0166166   2.44437e-7
     0.0167783    2.6905e-7
     0.0169264   2.93388e-7
      0.017057   3.16374e-7
     0.0172261   3.48369e-7
      0.017321   3.67482e-7
     0.0174883   4.03333e-7
     0.0176625   4.43742e-7
     0.0177823   4.73449e-7
     0.0179271   5.11572e-7
     0.0180594   5.48602e-7
     0.0182311   6.00057e-7
     0.0183868   6.50106e-7
     0.0185307   6.99461e-7
     0.0187083   7.64607e-7
     0.0188651   8.26249e-7
     0.0190682   9.12216e-7
     0.0191823   9.63657e-7
     0.0193835    1.0603e-6
     0.0195933   1.16944e-6
     0.0197376   1.24981e-6
     0.0199121    1.3531e-6
     0.0201195   1.48493e-6
     0.0203384   1.63547e-6
      0.020539   1.78433e-6
     0.0207162   1.92489e-6
     0.0209458   2.12051e-6
     0.0210748   2.23734e-6
     0.0213024   2.45643e-6
     0.0215396   2.70328e-6
     0.0217029   2.88468e-6
     0.0219005   3.11738e-6
       0.02212   3.39371e-6
     0.0223467   3.70001e-6
     0.0225469     3.989e-6
     0.0228066   4.39079e-6
     0.0230809   4.85033e-6
     0.0233073   5.25849e-6
     0.0235524   5.73119e-6
     0.0237751   6.19017e-6
         0.024    6.6832e-6
     0.0242413   7.24769e-6
     0.0245483   8.02071e-6
     0.0248083   8.72593e-6
      0.025101   9.57889e-6
     0.0254065   1.05391e-5
     0.0257439   1.16881e-5
         0.026    1.2625e-5
     0.0263485   1.39971e-5
     0.0266438   1.52503e-5
     0.0269766   1.67679e-5
     0.0273241   1.84783e-5
     0.0275636   1.97356e-5
     0.0278538   2.13486e-5
      0.028121   2.29254e-5
     0.0284564   2.50348e-5
     0.0288347   2.75938e-5
     0.0292301   3.04839e-5
     0.0295028   3.26117e-5
     0.0298333   3.53454e-5
     0.0301449   3.80854e-5
     0.0305653   4.20471e-5
     0.0309478   4.59243e-5
      0.031303   4.97683e-5
     0.0317428   5.48698e-5
     0.0321328   5.97228e-5
     0.0326301   6.63853e-5
     0.0330522   7.24779e-5
     0.0335288   7.98626e-5
     0.0340274   8.81935e-5
     0.0343716   9.43212e-5
     0.0347893  0.000102187
     0.0352933  0.000112354
     0.0358499  0.000124473
     0.0363442  0.000136042
     0.0367822  0.000146959
     0.0373407  0.000161821
     0.0378147  0.000175297
     0.0383495  0.000191497
      0.038931  0.000210352
     0.0394619  0.000228744
          0.04   0.00024858
     0.0405933  0.000271988
     0.0411196  0.000294085
     0.0417913  0.000324178
     0.0423619   0.00035147
     0.0430066  0.000384288
     0.0437082   0.00042249
     0.0443494  0.000459756
         0.045   0.00049995
     0.0458601  0.000557152
     0.0465925  0.000609467
      0.047422  0.000672867
     0.0482928  0.000744365
     0.0492611  0.000830032
          0.05   0.00089994
     0.0508637  0.000987211
      0.051598   0.00106596
     0.0524282   0.00116018
     0.0533326   0.00126927
     0.0544385   0.00141209
     0.0552999   0.00153098
     0.0561331   0.00165278
     0.0570758   0.00179842
     0.0581035   0.00196691
      0.059361   0.00218729
          0.06    0.0023054
     0.0612127   0.00254257
     0.0621383   0.00273422
     0.0635531   0.00304538
         0.065     0.003387
     0.0662155   0.00369461
      0.067142   0.00394099
     0.0685561    0.0043373
          0.07    0.0047677
       0.07168   0.00530548
     0.0735587   0.00595112
         0.075    0.0064787
     0.0762199   0.00695082
     0.0780871   0.00771424
          0.08    0.0085483
     0.0821503   0.00955726
     0.0840393    0.0105011
     0.0862233    0.0116563
     0.0880914    0.0127114
     0.0906103    0.0142358
     0.0930933    0.0158343
     0.0962261    0.0180159
     0.0987258    0.0198812
      0.102411    0.0228187
      0.104258    0.0243856
      0.107091      0.02694
          0.11     0.029762
       0.11334    0.0331187
      0.115675    0.0356219
      0.118541    0.0388767
      0.122425    0.0435208
      0.126156    0.0482756
          0.13      0.05355
      0.132431     0.056983
      0.136163    0.0625496
      0.141213    0.0706229
       0.14429    0.0757793
      0.148072    0.0824664
       0.15244    0.0905773
      0.157439      0.10041
      0.162443     0.110852
      0.167443     0.121874
      0.172447     0.133514
      0.177446     0.145742
      0.184932     0.165169
      0.192452     0.186065
           0.2      0.20842
      0.207454     0.231675
      0.214942     0.256301
      0.224944     0.291028
       0.23746     0.337098
          0.25      0.38568
      0.264953     0.445228
          0.29      0.54603
           0.3       0.5847
          0.31      0.62164
          0.32      0.65629
          0.33      0.68815
          0.34      0.71679
          0.35      0.74186
          0.36      0.76314
          0.37       0.7805
          0.38      0.79392
          0.39      0.80349
         0.404      0.81075
         0.413      0.81191
      0.427493     0.808554
          0.44       0.8014
      0.454973     0.788049
      0.474974     0.764868
           0.5      0.72992
      0.524404     0.689787
          0.55      0.65186
      0.574456     0.612778
      0.612127      0.55847
      0.637122     0.524921
      0.662155     0.493967
       0.68715     0.465385
      0.712179     0.439202
      0.737175     0.415196
      0.762199     0.393233
      0.787196     0.373125
      0.812217     0.354701
          0.85      0.32967
      0.887231     0.308025
      0.912248     0.294875
          0.95      0.27688
      0.987259     0.261159
       1.02411     0.247319
       1.06138     0.234682
           1.1      0.22269
       1.14891     0.209563
           1.2      0.19721
         1.249     0.187006
           1.3      0.17733
        1.3743     0.165304
           1.4      0.16148

#-------------------------------------------------------------------------------

